#Wave		#Intensity
2073.650391	167.625046
2072.009766	210.293243
2070.369141	223.955338
2068.728516	211.717484
2067.085938	208.622116
2065.443359	234.454376
2063.800781	216.134369
2062.158203	194.779526
2060.515625	193.212357
2058.871094	197.729919
2057.228516	247.864609
2055.583984	188.515244
2053.937500	150.472748
2052.292969	197.544022
2050.648438	186.863083
2049.001953	162.517471
2047.355469	191.330719
2045.708984	207.985291
2044.060547	151.778397
2042.414062	194.230667
2040.765625	180.531372
2039.117188	186.555786
2037.468750	189.544647
2035.820312	192.532104
2034.169922	180.361694
2032.521484	206.079193
2030.871094	157.552933
2029.220703	198.409454
2027.568359	196.848602
2025.917969	204.371658
2024.265625	180.107498
2022.613281	134.670578
2020.960938	169.433273
2019.308594	217.791580
2017.654297	136.087753
2016.000000	167.802124
2014.345703	182.876450
2012.691406	197.943680
2011.037109	222.067810
2009.382812	184.257874
2007.726562	176.664810
2006.070312	172.094498
2004.414062	220.349945
2002.757812	188.611450
2001.099609	171.973236
1999.441406	230.751968
1997.783203	209.588150
1996.125000	194.464172
1994.466797	197.432739
1992.808594	213.960785
1991.148438	159.679688
1989.488281	180.727005
1987.828125	185.201675
1986.166016	170.104660
1984.505859	168.559708
1982.843750	218.173386
1981.181641	204.583527
1979.519531	160.921295
1977.857422	180.430099
1976.195312	202.936203
1974.531250	169.825226
1972.867188	156.262619
1971.203125	178.758514
1969.539062	216.262024
1967.873047	184.680450
1966.207031	159.118134
1964.541016	186.094498
1962.875000	174.047531
1961.208984	159.006088
1959.542969	152.969940
1957.875000	170.926270
1956.207031	175.383148
1954.539062	214.306854
1952.869141	158.819534
1951.201172	127.325401
1949.531250	212.658386
1947.861328	170.685669
1946.191406	190.105194
1944.521484	182.577881
1942.849609	196.000717
1941.179688	203.433914
1939.507812	151.044144
1937.835938	174.930862
1936.162109	118.087990
1934.490234	143.465652
1932.816406	168.831406
1931.142578	122.486076
1929.468750	203.099960
1927.794922	155.275299
1926.119141	167.180313
1924.445312	152.217773
1922.769531	180.529709
1921.093750	181.978973
1919.416016	187.901413
1917.740234	122.256355
1916.062500	150.548721
1914.384766	147.532944
1912.707031	162.397156
1911.029297	163.848587
1909.349609	160.831787
1907.669922	150.372223
1905.990234	126.521194
1904.310547	171.135590
1902.630859	188.948883
1900.949219	169.567886
1899.269531	191.834442
1897.587891	133.806595
1895.906250	166.475815
1894.222656	167.922821
1892.541016	150.055115
1890.857422	126.254395
1889.173828	158.894730
1887.490234	121.741241
1885.804688	154.367325
1884.121094	130.587875
1882.435547	183.967041
1880.750000	140.909439
1879.064453	133.461868
1877.378906	140.843384
1875.691406	197.134506
1874.003906	200.052017
1872.316406	133.336746
1870.628906	157.004242
1868.941406	171.775696
1867.251953	164.333038
1865.562500	134.691895
1863.873047	139.099686
1862.183594	177.532440
1860.494141	195.239914
1858.802734	152.310593
1857.111328	134.534119
1855.419922	143.370895
1853.728516	150.725815
1852.037109	155.122574
1850.343750	169.856339
1848.650391	189.013184
1846.957031	143.202988
1845.263672	121.029831
1843.570312	119.525841
1841.875000	137.201218
1840.179688	154.868301
1838.484375	151.882843
1836.789062	143.001785
1835.091797	100.225182
1833.396484	135.567017
1831.699219	176.785110
1830.001953	128.139175
1828.304688	139.889313
1826.605469	167.827850
1824.908203	167.788544
1823.208984	147.148453
1821.509766	189.777039
1819.808594	157.375092
1818.109375	155.867783
1816.408203	157.301376
1814.707031	133.748352
1813.005859	160.166550
1811.304688	148.376450
1809.601562	118.967102
1807.900391	185.016602
1806.197266	145.336136
1804.494141	148.237503
1802.789062	173.147812
1801.085938	165.772217
1799.380859	136.400055
1797.675781	171.559891
1795.970703	199.373352
1794.265625	175.876480
1792.558594	187.557663
1790.851562	171.399277
1789.144531	162.571503
1787.437500	184.497421
1785.730469	168.351089
1784.021484	181.483902
1782.314453	115.595741
1780.605469	168.232895
1778.894531	172.581177
1777.185547	185.700668
1775.474609	127.182487
1773.765625	138.844925
1772.054688	132.967697
1770.341797	134.397415
1768.630859	127.063469
1766.917969	147.475937
1765.207031	128.463821
1763.494141	143.028503
1761.779297	93.384514
1760.066406	135.667618
1758.351562	118.134468
1756.636719	137.062241
1754.921875	142.861237
1753.207031	142.827820
1751.492188	154.451080
1749.775391	116.539581
1748.058594	171.855667
1746.341797	122.309319
1744.625000	117.913536
1742.906250	126.618240
1741.187500	85.847458
1739.470703	190.565872
1737.750000	135.255569
1736.031250	164.304352
1734.312500	104.665009
1732.591797	88.653786
1730.871094	120.599068
1729.150391	156.887390
1727.427734	177.183182
1725.707031	159.717972
1723.984375	133.551056
1722.261719	101.591179
1720.539062	124.782829
1718.816406	130.556152
1717.091797	130.525620
1715.367188	168.193680
1713.642578	152.208679
1711.917969	117.390671
1710.193359	137.648224
1708.466797	133.270279
1706.740234	91.239830
1705.013672	163.614136
1703.287109	98.435043
1701.558594	99.859268
1699.832031	95.495232
1698.103516	146.102478
1696.375000	86.773262
1694.646484	177.843613
1692.916016	131.544601
1691.185547	148.856339
1689.457031	124.258766
1687.724609	137.230515
1685.994141	109.758743
1684.263672	141.497940
1682.531250	167.448212
1680.798828	105.352264
1679.066406	142.841599
1677.332031	150.020752
1675.599609	148.543533
1673.865234	142.741486
1672.130859	160.006088
1670.396484	157.086380
1668.662109	132.555695
1666.925781	161.334442
1665.189453	126.733162
1663.453125	105.106354
1661.716797	109.400230
1659.980469	138.157486
1658.242188	129.492386
1656.503906	187.000854
1654.765625	112.174301
1653.027344	159.595367
1651.287109	106.372063
1649.548828	136.526825
1647.808594	150.862839
1646.068359	124.971436
1644.328125	110.581070
1642.585938	120.605721
1640.843750	120.577553
1639.101562	77.496040
1637.359375	130.564682
1635.617188	134.837509
1633.873047	124.767281
1632.130859	180.655243
1630.386719	154.811188
1628.642578	169.106064
1626.896484	144.709534
1625.152344	174.756836
1623.406250	127.456779
1621.660156	131.722321
1619.914062	134.554428
1618.166016	120.212051
1616.417969	154.522263
1614.671875	191.677322
1612.923828	147.299667
1611.173828	168.711685
1609.425781	150.089752
1607.675781	144.338348
1605.925781	191.453705
1604.175781	164.268936
1602.425781	197.076721
1600.673828	209.880554
1598.923828	157.016815
1597.171875	244.032806
1595.419922	226.854752
1593.666016	164.039047
1591.914062	192.522629
1590.160156	185.348907
1588.406250	249.449921
1586.652344	235.140762
1584.896484	266.430664
1583.142578	286.310547
1581.386719	351.752258
1579.630859	353.093933
1577.875000	372.939636
1576.117188	370.006439
1574.361328	377.033966
1572.603516	342.807495
1570.845703	305.752777
1569.085938	280.089508
1567.328125	282.867065
1565.568359	292.748840
1563.808594	262.844208
1562.048828	241.476166
1560.289062	230.058914
1558.527344	183.152328
1556.767578	191.626343
1555.005859	205.772888
1553.242188	218.494034
1551.480469	212.769226
1549.716797	190.029510
1547.955078	175.807205
1546.191406	174.348740
1544.425781	212.570831
1542.662109	198.353180
1540.896484	198.306931
1539.130859	154.360107
1537.365234	154.324127
1535.599609	182.597885
1533.833984	168.403748
1532.066406	135.823441
1530.298828	137.206284
1528.531250	173.942657
1526.763672	171.074432
1524.994141	171.034561
1523.224609	179.473770
1521.455078	189.321884
1519.685547	187.865234
1517.916016	204.767731
1516.144531	196.248840
1514.373047	196.203094
1512.601562	179.222916
1510.830078	197.522537
1509.058594	207.350327
1507.285156	207.302002
1505.511719	248.140472
1503.738281	239.625290
1501.964844	253.661774
1500.189453	249.375946
1498.414062	242.274963
1496.638672	281.649445
1494.863281	298.478851
1493.087891	336.414246
1491.310547	474.247650
1489.535156	662.666504
1487.757812	976.185608
1485.978516	1260.026733
1484.201172	1438.289062
1482.421875	1280.524048
1480.644531	881.121338
1478.863281	533.888550
1477.083984	466.341339
1475.304688	407.251495
1473.523438	360.825012
1471.742188	314.420135
1469.960938	324.170258
1468.179688	345.139862
1466.396484	304.381744
1464.613281	322.541473
1462.830078	308.446075
1461.046875	322.391266
1459.263672	315.309326
1457.478516	249.386612
1455.693359	292.750946
1453.908203	312.288330
1452.123047	362.618134
1450.337891	397.527283
1448.550781	512.187012
1446.763672	475.691376
1444.976562	539.923889
1443.189453	488.055878
1441.400391	422.230835
1439.613281	387.187805
1437.824219	368.930634
1436.033203	353.476227
1434.244141	322.664032
1432.455078	293.262665
1430.664062	302.967560
1428.873047	283.355286
1427.080078	184.207855
1425.289062	223.230270
1423.496094	203.650223
1421.705078	216.153687
1419.910156	165.911636
1418.117188	177.024155
1416.324219	192.312195
1414.529297	190.874191
1412.734375	192.222702
1410.939453	214.459473
1409.142578	171.249207
1407.347656	162.857681
1405.550781	168.386292
1403.753906	244.868515
1401.957031	211.428162
1400.158203	211.378967
1398.361328	196.036194
1396.562500	187.650558
1394.763672	240.414780
1392.964844	207.014282
1391.164062	173.629303
1389.363281	165.256638
1387.562500	173.548538
1385.761719	201.269485
1383.960938	160.978134
1382.158203	235.861359
1380.357422	198.354889
1378.554688	216.336823
1376.750000	181.625214
1374.947266	178.810715
1373.142578	194.013016
1371.337891	216.135666
1369.533203	223.011215
1367.728516	153.717331
1365.921875	177.218399
1364.117188	217.318909
1362.310547	204.813507
1360.503906	297.463959
1358.695312	278.029572
1356.888672	262.752899
1355.080078	266.839600
1353.271484	315.156921
1351.462891	327.521149
1349.652344	342.642883
1347.843750	419.916229
1346.033203	368.722290
1344.222656	487.373474
1342.410156	491.401215
1340.599609	621.008850
1338.787109	727.101318
1336.974609	909.010254
1335.162109	1159.787476
1333.349609	1490.414917
1331.535156	1696.831055
1329.720703	1937.603638
1327.906250	2036.353271
1326.091797	1887.114868
1324.275391	1575.443604
1322.460938	1397.468262
1320.644531	1252.611450
1318.828125	1030.756104
1317.009766	800.748535
1315.193359	665.759888
1313.375000	534.959534
1311.556641	445.466919
1309.738281	345.019196
1307.917969	358.681641
1306.099609	261.048584
1304.279297	277.471405
1302.458984	254.060822
1300.638672	215.558289
1298.816406	211.390228
1296.994141	214.085831
1295.173828	181.107468
1293.349609	185.180527
1291.527344	226.279205
1289.703125	182.352386
1287.880859	180.939285
1286.056641	148.006866
1284.230469	161.673645
1282.406250	175.334076
1280.580078	160.229095
1278.753906	158.822723
1276.927734	191.638092
1275.101562	139.589630
1273.273438	195.653748
1271.447266	146.364273
1269.619141	153.168152
1267.791016	146.296310
1265.960938	133.959915
1264.132812	194.060120
1262.302734	158.491180
1260.472656	154.356445
1258.640625	165.245956
1256.810547	176.130432
1254.978516	204.755280
1253.146484	170.589798
1251.314453	137.804565
1249.482422	163.690201
1247.648438	107.737709
1245.814453	140.435547
1243.980469	154.034317
1242.146484	137.644745
1240.312500	144.425308
1238.476562	159.375854
1236.640625	177.043198
1234.804688	174.279007
1232.968750	186.489716
1231.130859	145.618759
1229.292969	175.518326
1227.455078	219.006943
1225.617188	216.236176
1223.779297	262.414459
1221.939453	286.821808
1220.099609	438.966614
1218.259766	533.974792
1216.419922	589.545288
1214.580078	593.482788
1212.738281	707.397766
1210.896484	648.863159
1209.054688	522.498657
1207.210938	393.479156
1205.369141	328.275421
1203.525391	254.964737
1201.681641	214.229172
1199.837891	185.712601
1197.992188	172.117020
1196.146484	172.077103
1194.302734	163.909454
1192.455078	190.957642
1190.609375	150.293503
1188.763672	162.441788
1186.916016	139.396881
1185.068359	138.011505
1183.218750	133.921280
1181.371094	155.529068
1179.521484	123.042290
1177.671875	127.069168
1175.822266	116.227821
1173.972656	147.277863
1172.123047	106.717926
1170.271484	102.641548
1168.419922	148.525696
1166.568359	141.741669
1164.714844	95.822151
1162.861328	122.785843
1161.009766	145.690079
1159.156250	113.288254
1157.300781	118.655426
1155.447266	118.627930
1153.591797	111.861778
1151.736328	134.741989
1149.880859	98.338860
1148.023438	103.703262
1146.167969	79.442528
1144.310547	84.808807
1142.453125	99.593613
1140.595703	63.240746
1138.736328	121.071243
1136.876953	91.454857
1135.017578	80.676773
1133.158203	142.495941
1131.298828	138.430969
1129.437500	123.618431
1127.576172	107.469391
1125.714844	114.159775
1123.853516	138.302750
1121.992188	91.285522
1120.128906	102.001358
1118.265625	128.813980
1116.402344	147.565170
1114.537109	118.024796
1112.673828	138.110672
1110.808594	156.846664
1108.943359	108.561005
1107.078125	80.396942
1105.210938	101.812538
1103.345703	123.218224
1101.478516	121.850677
1099.609375	125.838585
1097.742188	120.455856
1095.875000	167.261063
1094.005859	156.520111
1092.136719	104.322586
1090.265625	124.355827
1088.396484	117.642792
1086.525391	157.711761
1084.654297	96.208633
1082.783203	162.982452
1080.912109	90.821648
1079.039062	130.859726
1077.166016	136.169418
1075.292969	133.468536
1073.419922	121.428253
1071.546875	84.046257
1069.671875	114.703262
1067.796875	136.011917
1065.921875	106.651329
1064.046875	73.305817
1062.169922	113.264595
1060.292969	99.916222
1058.416016	107.884552
1056.539062	103.864792
1054.660156	59.908131
1052.783203	86.513947
1050.904297	91.816635
1049.025391	90.465019
1047.144531	63.842892
1045.265625	91.752922
1043.384766	124.967819
1041.503906	101.014442
1039.623047	100.991074
1037.740234	106.281799
1035.857422	78.364700
1033.976562	103.576828
1032.091797	92.932060
1030.208984	104.856209
1028.324219	95.543053
1026.441406	102.154358
1024.556641	83.561508
1022.669922	127.302376
1020.785156	100.757744
1018.898438	106.036255
1017.011719	106.011734
1015.125000	82.140099
1013.238281	68.875763
1011.349609	90.047478
1009.460938	72.815681
1007.572266	76.769691
1005.683594	101.894821
1003.792969	92.610237
1001.904297	130.947067
1000.013672	104.468956
998.123047	85.935600
996.230469	77.985046
994.339844	83.252922
992.447266	93.803032
990.554688	75.289253
988.660156	88.477440
986.767578	46.208878
984.873047	81.836807
982.978516	75.219673
981.083984	65.966919
979.189453	67.270706
977.292969	93.629738
975.396484	65.921196
973.500000	106.767662
971.603516	105.425179
969.705078	90.908203
967.806641	110.645287
965.908203	84.281693
964.009766	92.161804
962.111328	81.610161
960.210938	85.539276
958.310547	102.623413
956.410156	63.138283
954.509766	73.644310
952.607422	74.942070
950.707031	105.157562
948.804688	124.845757
946.900391	105.108986
944.998047	131.355881
943.093750	80.108582
941.189453	110.287979
939.285156	105.011909
937.380859	119.423462
935.474609	116.771797
933.568359	110.186127
931.662109	99.669189
929.755859	128.491119
927.849609	106.177322
925.941406	96.979103
924.033203	68.131744
922.125000	99.554169
920.216797	82.506111
918.306641	92.961609
916.396484	115.193428
914.486328	95.536118
912.576172	83.738358
910.664062	91.567688
908.751953	82.391891
906.841797	99.370445
904.927734	91.504288
903.015625	79.721046
901.101562	100.608253
899.187500	83.603142
897.273438	78.359856
895.359375	66.590508
893.443359	80.934479
891.529297	93.966736
889.613281	86.116295
887.695312	91.314384
885.779297	74.338844
883.861328	89.968361
881.943359	73.000946
880.025391	48.221642
878.107422	46.907528
876.187500	46.896702
874.269531	85.957451
872.347656	58.593834
870.427734	67.692810
868.507812	63.772736
866.585938	113.203026
864.664062	66.345085
862.742188	83.237373
860.818359	74.116180
858.896484	57.199295
856.972656	93.577255
855.048828	87.058746
853.125000	79.244164
851.199219	76.628311
849.273438	88.297012
847.347656	71.400230
845.421875	58.404896
843.496094	55.796253
841.568359	77.837280
839.640625	86.898254
837.712891	72.614624
835.785156	98.525696
833.855469	94.614700
831.925781	130.875092
829.996094	80.320641
828.066406	99.730057
826.134766	72.514229
824.205078	91.916481
822.273438	66.009293
820.341797	84.110100
818.408203	63.391457
816.476562	89.244942
814.542969	91.810585
812.609375	81.446953
810.673828	76.258133
808.740234	111.130310
806.804688	77.514900
804.869141	98.162910
802.933594	87.809731
800.996094	90.371536
799.060547	78.734192
797.123047	81.296898
795.183594	85.148552
793.246094	68.361115
791.306641	92.846527
789.369141	82.511230
787.429688	104.404213
785.488281	73.452705
783.548828	97.914375
781.607422	130.093063
779.666016	90.142738
777.724609	84.972145
775.781250	66.932327
773.839844	75.924950
771.896484	115.791046
769.953125	124.768265
768.007812	75.872498
766.064453	92.568840
764.119141	100.259804
762.173828	66.824478
760.228516	92.504890
758.281250	102.759537
756.333984	71.915108
754.386719	79.601959
752.439453	75.732811
750.492188	98.814972
748.542969	105.207298
746.593750	88.507706
744.644531	82.075203
742.695312	160.266205
740.744141	162.792984
738.792969	126.872398
736.841797	114.030739
734.890625	130.656830
732.939453	65.313377
730.986328	85.784088
729.033203	113.925766
727.080078	97.262527
725.125000	117.711746
723.171875	110.009567
721.216797	97.195374
719.261719	98.451599
717.304688	102.263832
715.349609	120.132339
713.392578	141.825760
711.435547	160.954346
709.478516	132.820633
707.519531	103.423027
705.562500	126.376839
703.603516	89.336792
701.644531	113.559219
699.683594	66.333939
697.722656	112.231606
695.763672	93.079796
693.802734	72.662018
691.839844	103.232796
689.878906	126.144386
687.916016	107.006981
685.953125	54.764778
683.990234	75.125084
682.025391	85.291908
680.060547	101.817657
678.095703	53.441975
676.130859	92.865875
674.166016	54.689236
672.199219	66.120605
670.232422	92.801811
668.265625	100.406258
666.298828	100.383163
664.330078	73.682083
662.361328	110.497704
660.392578	114.281685
658.423828	149.801529
656.455078	120.575188
654.484375	55.832508
652.513672	101.490311
650.542969	98.930298
648.570312	97.639511
646.599609	86.207275
644.626953	68.442978
642.654297	93.770660
640.679688	55.742710
638.707031	41.797421
636.732422	68.380058
634.757812	83.556412
632.783203	86.068634
630.806641	55.678669
628.830078	86.029068
626.853516	92.333511
624.876953	130.248840
622.900391	216.188675
620.921875	314.728699
618.943359	156.696335
616.964844	116.231857
614.986328	68.207367
613.005859	70.717308
611.025391	118.676781
609.044922	261.281372
607.064453	135.027451
605.082031	116.071693
603.099609	66.852020
601.117188	84.491631
599.134766	56.735069
597.152344	71.847916
595.167969	68.050804
593.183594	80.634277
591.199219	59.202194
589.212891	88.153221
587.228516	60.434040
585.242188	62.937664
583.255859	76.766312
581.267578	57.876053
579.281250	79.246819
577.292969	67.910248
575.304688	64.122726
573.316406	66.622032
571.326172	65.350006
569.335938	76.642975
567.345703	56.526917
565.355469	60.281528
563.365234	67.801147
561.373047	46.445675
559.380859	53.965012
557.388672	55.207333
555.396484	62.721199
553.402344	87.789520
551.408203	55.169315
549.414062	63.931568
547.419922	62.663620
545.423828	58.890278
543.427734	62.634850
541.431641	76.396973
539.435547	76.379440
537.439453	106.405937
535.441406	102.626869
533.443359	91.341972
531.445312	45.035019
529.445312	63.784966
527.447266	71.272720
525.447266	71.256363
523.445312	91.237198
521.445312	116.207024
519.443359	67.459557
517.443359	56.203400
515.441406	97.396873
513.437500	88.635780
511.435547	82.374924
509.431641	77.364746
507.427734	78.594528
505.423828	122.230103
503.417969	77.311508
501.412109	110.953957
499.406250	78.522423
497.400391	98.442039
495.394531	28.653767
493.386719	115.834305
491.378906	83.431374
489.371094	99.596703
487.363281	99.573860
485.353516	75.907654
483.343750	98.284081
481.333984	59.703217
479.324219	106.943726
477.312500	89.513748
475.300781	50.961418
473.289062	121.782280
471.277344	96.906532
469.265625	115.515907
467.251953	221.044250
465.238281	441.987152
463.224609	574.699768
461.208984	322.651581
459.193359	158.807434
457.179688	155.049835
455.162109	124.011429
453.146484	120.263512
451.128906	86.768204
449.111328	74.355698
447.093750	84.250473
445.076172	96.618095
443.056641	82.973442
441.039062	74.287544
439.019531	85.411095
436.998047	92.816864
434.978516	95.270142
432.957031	76.693443
430.935547	68.018913
428.914062	82.840416
426.890625	89.002129
424.869141	158.189758
422.845703	149.504486
420.820312	123.529114
418.796875	107.445702
416.771484	98.778008
414.746094	65.425438
412.720703	103.669388
410.695312	51.822815
408.667969	76.482819
406.640625	59.198940
404.613281	101.108360
402.585938	110.947166
400.556641	189.799438
398.529297	367.190094
396.500000	253.771255
394.468750	160.110229
392.439453	116.976830
390.408203	114.487930
388.376953	70.153946
386.345703	36.914677
384.312500	76.272858
382.281250	56.576580
380.248047	61.482197
378.212891	55.321304
376.179688	77.432091
374.144531	86.015961
372.109375	97.052925
370.074219	99.487175
368.039062	46.662308
366.001953	72.432785
363.964844	69.961418
361.927734	52.765827
359.890625	100.600166
357.851562	74.819580
355.814453	33.109280
353.773438	88.271202
351.734375	78.445335
349.695312	66.173096
347.654297	80.859718
345.613281	61.243340
343.572266	55.106392
341.529297	108.963249
339.486328	89.353897
337.443359	73.424751
335.400391	53.832493
333.357422	78.283890
331.312500	29.349741
329.267578	58.686050
327.222656	84.341888
325.177734	58.659195
323.130859	84.303299
321.083984	87.948532
319.037109	46.406658
316.990234	67.152168
314.941406	68.357468
312.892578	41.493256
310.843750	68.326195
308.794922	31.715620
306.744141	70.734047
304.693359	39.016754
302.642578	47.540791
300.591797	57.279640
298.539062	64.577164
296.488281	59.689758
294.435547	42.625790
292.380859	42.616043
290.328125	63.300781
288.273438	52.332905
286.218750	66.922127
284.164062	45.010044
282.109375	57.161850
280.052734	7.295588
277.996094	75.370514
275.939453	41.322765
273.880859	41.313316
271.824219	55.881706
269.765625	106.879692
267.707031	84.998497
265.646484	58.271358
263.587891	70.395126
261.527344	101.928261
259.466797	149.217972
257.404297	112.797554
255.343750	105.496178
253.281250	100.622772
251.218750	89.691360
249.156250	64.223724
247.091797	88.438873
245.027344	84.785019
242.962891	38.750008
240.898438	94.431557
238.832031	85.937286
236.767578	64.135704
234.701172	52.022739
232.632812	82.249718
230.566406	71.347420
228.498047	74.958122
226.429688	48.349030
224.361328	66.464729
222.292969	88.196663
220.222656	59.186974
218.152344	35.021023
216.082031	74.855423
214.009766	102.600929
211.939453	73.614433
209.867188	54.293324
207.794922	72.374565
205.720703	25.325312
203.648438	78.369965
201.574219	83.173729
199.500000	73.513603
197.423828	26.507048
195.349609	25.296402
193.273438	25.290627
191.197266	56.589901
189.119141	58.984509
187.042969	58.971039
184.964844	27.673964
